,Top chamber pressure,Bottom chamber pressure,Air frame pressure,Absolute pressure,Plate force,ACCL
0,0.11123586604102545,0.021996682889624652,161.1576309067471,1007.0750277327031,4.086703036802447,1.5303129314559023
1,0.1116339896034336,0.022086305559546698,161.14767940730076,1007.076977314152,3.788315373301259,1.6017827972738827
2,0.1120157976226313,0.022192801561686824,161.13770800993163,1007.0790297848879,3.4693600185592786,1.8429694634590965
3,0.11238081825090003,0.022315377323685277,161.12777372111822,1007.0811719732612,3.13608416488087,2.2186961958213187
4,0.11272895708775978,0.02245243287709949,161.11793215725334,1007.0833904261111,2.7963314835084034,2.4477842628670623
5,0.11306017815521438,0.022601946801753148,161.10823632006378,1007.0856715104757,2.4588479291840173,2.3697707793076788
6,0.11337419867346907,0.022761942698666823,161.09873581387876,1007.088001237137,2.132898566614685,2.0091336067043066
7,0.11367030633217215,0.022930869645498963,161.0894765177097,1007.0903648211003,1.827896019129419,1.6223997568348931
8,0.11394735672090392,0.023107762824250363,161.08050044080653,1007.0927462907955,1.553050909483126,1.6641207750059235
9,0.11420393678203855,0.023292126370414983,161.07184551125573,1007.0951284912339,1.3174303506555276,2.06523212440739
10,0.11443862333766452,0.023483579512997232,161.0635452423707,1007.097493528829,1.1303154647495575,2.3976932847299723
11,0.11465024202491053,0.023681398283351834,161.05562835454003,1007.0998234071533,1.0007456554900926,2.496666898085983
12,0.11483803683574931,0.023884129864759355,161.0481184277155,1007.1021005943278,0.9351146534700092,2.386277224802412
13,0.11500168820927922,0.02408943069828414,161.04103359767154,1007.1043084446803,0.9333430351004992,2.170798057980115
14,0.11514116817641429,0.024294190293566324,161.03438633471512,1007.1064314767598,0.9862079788302864,1.961272703252218
15,0.11525648411483584,0.0244948898214877,161.0281834810424,1007.1084554171871,1.0765381404484415,1.818814580186885
16,0.1153474135391463,0.024688058195329675,161.0224267593479,1007.110366880503,1.184407122751935,1.7312758086384556
17,0.1154133432603927,0.024870659721434447,161.01711376967984,1007.1121527497111,1.2934686121094146,1.6513286793276818
18,0.1154532838362096,0.025040277602818493,161.01223924897636,1007.1137995898895,1.395004764815674,1.5506942857613102
19,0.11546605364121701,0.025195032342318697,161.0077962930938,1007.1152934416193,1.4882821695002733,1.4307042258703226
20,0.11545055896404749,0.02533327526566449,161.00377733715086,1007.116620053724,1.5782032453484476,1.3071499227741845
21,0.11540606681034529,0.025453192687450145,161.0001748230398,1007.1177653392938,1.6719818859748088,1.2042453142952514
22,0.11533237614712404,0.025552499576526565,160.99698153923555,1007.1187158402186,1.775919761595901,1.1530908256441208
23,0.11522983118491258,0.02562836472331905,160.9941906454185,1007.1194591492293,1.8927208560782347,1.1725177003722438
24,0.11509917878827212,0.025677608443287273,160.9917954904216,1007.1199842830239,2.019710661329185,1.2472193338911857
25,0.11494133728150645,0.025697098387636008,160.9897894045291,1007.1202818987769,2.148507657610679,1.339456694415193
26,0.11475718701447288,0.02568418968726154,160.98816557521002,1007.1203442339975,2.2662231708018794,1.4132159725996263
27,0.1145474830104392,0.025637040241055585,160.98691699015075,1007.1201648473104,2.3572876304116974,1.444110688195394
28,0.11431292742102091,0.02555468268752222,160.98603638387377,1007.11973844346,2.405001286087625,1.4204164479107686
29,0.11405436355249549,0.025436833635209752,160.9855161615164,1007.1190610002105,2.3928279011583555,1.3420619532324278
30,0.11377300300302419,0.02528353168230015,160.98534834673734,1007.11813012838,2.306074173484248,1.218918865351541
31,0.11347058537781429,0.02509477144766839,160.98552461542434,1007.1169454380486,2.1343757211831687,1.0685369399126443
32,0.11314939355563217,0.024870304784071907,160.9860363742036,1007.1155088048084,1.8744785239759807,0.9136436752380255
33,0.11281209997366441,0.024609708395281902,160.98687476535554,1007.1138245791984,1.5322102495579273,0.7770190876534563
34,0.11246148543751744,0.02431270372758729,160.98803058290733,1007.1118997177178,1.1228011760000172,0.6712048131026058
35,0.11210012603972812,0.02397961343880796,160.98949422485182,1007.1097436723195,0.6691977959266779,0.5911394793502003
36,0.11173015987740548,0.023611786168205848,160.99125574256936,1007.107367954122,0.19854388370642084,0.5250772209569242
37,0.1113532119295196,0.023211828755126018,160.99330484561006,1007.1047855772327,-0.2623814708175445,0.4823829180755217
38,0.1109704882183835,0.022783550722383254,160.99563067235948,1007.1020107487044,-0.6916606782023038,0.5050000024188684
39,0.11058298468049618,0.022331632866947202,160.99822133233735,1007.0990589794968,-1.075659201769156,0.5745539701924832
40,0.11019171842149028,0.021861139867317747,161.00106339400992,1007.0959474548013,-1.4105977726813066,0.6568395069789824
41,0.10979788433011561,0.021377058517468975,161.00414142447875,1007.0926953872612,-1.7017389485209264,0.7418111867961197
42,0.10940286833173243,0.020884029590762476,161.00743755577685,1007.0893242277575,-1.9602825308108223,0.8265491561934177
43,0.10900810513199347,0.02038635739046444,161.01093107254144,1007.0858577360951,-2.1991396826901806,0.9092824339493996
44,0.10861483218681234,0.01988826662385989,161.01459813156333,1007.0823218451952,-2.4291785000974286,0.9862654246340471
45,0.10822383719020962,0.01939428137052482,161.01841177803604,1007.078744162018,-2.65659369529687,1.0519164520690183
46,0.10783530571772419,0.018909555265480205,161.02234236026473,1007.0751530883388,-2.880979568023996,1.1016159807379173
47,0.10744884049208672,0.01843999475006932,161.0263583101913,1007.0715768559995,-3.093837194692881,1.1335819384982702
48,0.10706365587885111,0.01799208709346393,161.03042712898826,1007.0680428868137,-3.278058516084947,1.1495097621386665
49,0.10667888417354683,0.01757245293830918,161.0345163565646,1007.0645776123209,-3.409197814722141,1.1545376103402187
50,0.10629389452964426,0.01718725063690586,161.03859432736076,1007.0612065242324,-3.458766095212887,1.1546112737685694
51,0.10590852691262105,0.016841621198938686,161.0426305744344,1007.0579541681849,-3.3990990647518444,1.1516378418166104
52,0.1055231741226023,0.01653934666321249,161.04659583865464,1007.0548440047858,-3.2091706919151832,1.1414064397909671
53,0.10513869928856472,0.016282807906342844,161.05046184476035,1007.0518982136949,-2.88011211938975,1.1174947339253887
54,0.10475623971783217,0.016073213879880376,161.0542011874846,1007.0491374592402,-2.418011606958622,1.07790951851071
55,0.10437699083207842,0.01591098083688535,161.05778755081764,1007.0465805386291,-1.8420399820072575,1.0275442886795603
56,0.10400206459904705,0.015796098963918606,161.06119616109285,1007.0442439147591,-1.1786835591767968,0.9736533740803286
57,0.10363247533273874,0.015728347796559333,161.064404222813,1007.0421413384851,-0.4554331591462528,0.9207394447448987
58,0.10326924171450887,0.01570729894569448,161.06739119527208,1007.0402838001094,0.3026970571559531,0.8713711139811218
59,0.1029135411103175,0.015732141270592526,161.07013895118283,1007.038679812073,1.0730308406017173,0.8292866346716949
60,0.10256683474497875,0.01580144331216981,161.07263191977452,1007.0373357965168,1.8333295763229671,0.7994779245046341
61,0.1022308991848914,0.015913000069517257,161.07485720561942,1007.0362563949026,2.560448266652145,0.786760686448258
62,0.10190774098868721,0.016063872360663603,161.07680460024608,1007.0354446791555,3.2308033349100214,0.792985033295172
63,0.10159942719699945,0.016250626490620326,161.07846653613893,1007.0349022561579,3.8227778261493626,0.8125388087163912
64,0.10130791179273456,0.01646967691533298,161.0798381426847,1007.0346291907882,4.3202997547213755,0.8344753463929427
65,0.10103494608316736,0.016717585404256698,161.08091741175244,1007.0346237640933,4.715876457077016,0.8508606546887589
66,0.10078211870529681,0.01699119406862483,161.08170526370967,1007.0348822824851,5.010884814230927,0.8590636889428067
67,0.10055100450698014,0.01728754676125447,161.08220530086334,1007.0353991662345,5.212347061780989,0.8575678970021325
68,0.1003433511820271,0.01760364949826309,161.08242319310895,1007.0361673068724,5.327751951136619,0.8454120679879462
69,0.10016121914206122,0.017936194210787695,161.08236577579527,1007.0371784904955,5.360128404842214,0.8263034895427874
70,0.10000700881539683,0.018281385456685798,161.08204001725568,1007.0384237410472,5.304848205061887,0.808464031837834
71,0.0998833506211669,0.018634959393822984,161.08145209000202,1007.0398935705662,5.149046760998523,0.7979093809014763
72,0.099792888464647,0.01899239425379629,161.08060681639947,1007.0415781131782,4.87423261834882,0.7940179638465564
73,0.0997380372392221,0.019349224333964594,161.07950763395604,1007.043467049337,4.462040386040904,0.7930830978400735
74,0.09972080978654206,0.019701324291196858,161.07815696605533,1007.0455493141197,3.9015444749362516,0.79334989254745
75,0.09974277614628436,0.02004504537779467,161.07655671675283,1007.0478127970974,3.1951287065019898,0.7953775507605086
76,0.0998051523941744,0.020377152578282483,161.0747086775953,1007.0502442947256,2.360774614770854,0.7997271197253083
77,0.09990895268666089,0.020694606462576908,161.07261483377673,1007.0528297537378,1.4308450613743133,0.8052310079457969
78,0.10005510912663142,0.020994315467263377,161.07027764885888,1007.0555546102674,0.4483188423811342,0.8084357449720565
79,0.10024448188191686,0.021273005122799924,161.0677003303685,1007.0584040476069,-0.538585062218722,0.804458340737153
80,0.10047773588123637,0.021527291858727697,161.0648870829233,1007.0613631455158,-1.4821478508253847,0.789399499364833
81,0.10075512279396283,0.021753947690019284,161.06184353232834,1007.0644169080907,-2.3400515767890155,0.763193990805888
82,0.10107624915523103,0.02195025917764174,161.05857751023586,1007.0675500769277,-3.0788451081170507,0.7310690322403417
83,0.10143991911380368,0.02211435094447568,161.05510008092256,1007.0707467167485,-3.6759323001121373,0.7034741345483317
84,0.10184411173102108,0.022245356876245848,161.05142644058543,1007.0739897950709,-4.120098438165151,0.6932358151918544
85,0.10228609892578017,0.02234337128435142,161.04757640878452,1007.0772610597261,-4.410483941324912,0.7063716448979318
86,0.10276265722925457,0.022409189762538292,161.04357450146642,1007.0805413081265,-4.554508443843552,0.7347071668369165
87,0.10327029741954571,0.02244393423815297,161.0394497238383,1007.0838108803339,-4.566003984468296,0.7636646820134467
88,0.10380543446215115,0.022448711327286826,161.03523516797162,1007.0870501605926,-4.464399891935834,0.7862344715529193
89,0.1043644432327086,0.022424441747947763,161.03096744303062,1007.0902399961651,-4.274500190345627,0.8067486447458329
90,0.10494359315352408,0.022371918201786606,161.0266860706668,1007.0933620213103,-4.025642525415051,0.8292728118939976
91,0.10553891390573815,0.022292041160342675,161.02243306202573,1007.0963988304317,-3.749336897646785,0.8473417167564962
92,0.10614608259249535,0.022186101604488372,161.01825271852425,1007.099333930389,-3.475210040626493,0.8535716830648017
93,0.10676041357697177,0.02205596105382156,161.01419145207106,1007.1021515572409,-3.225992124740543,0.8547972307743597
94,0.10737698044331669,0.0219040282815783,161.01029741771498,1007.1048366029108,-3.0132730834764487,0.8656791895855742
95,0.1079908376362424,0.021733027720061887,161.00661991878582,1007.107374799223,-2.8359591558042254,0.8803000075654734
96,0.10859726875025992,0.02154565184285724,161.00320863496202,1007.1097530511139,-2.6822914114820833,0.8710353978266062
97,0.10919197900490261,0.02134424239454822,161.00011270395547,1007.1119597321701,-2.53440816045169,0.8282941645235675
98,0.10977116858408083,0.021130631103063607,160.9973796705019,1007.1139848896398,-2.3731374847475664,0.7810492335977224
99,0.11033146717259447,0.02090620069642503,160.99505437250943,1007.1158203845163,-2.181366918276737,0.7655994498010377
100,0.11086976514281681,0.02067213727753643,160.9931778985413,1007.1174599050289,-1.9458959627784793,0.7825525037407048
101,0.11138302013260525,0.020429773132799593,160.99178669328128,1007.1188987235741,-1.6582476218717233,0.8093413948714746
102,0.11186812871371023,0.020180886354006885,160.99091174887468,1007.120133192505,-1.3148646415566319,0.8301458026264941
103,0.11232192398364277,0.01992783687517771,160.9905777806264,1007.1211602025263,-0.9170507837745561,0.839956673023075
104,0.11274130323317491,0.01967347581569606,160.9908023788704,1007.1219768896098,-0.4706138907699682,0.8403072612808389
105,0.11312343546139615,0.01942085062109591,160.99159524926384,1007.1225806694108,0.015002758579413467,0.8350150592547898
106,0.11346597189503856,0.019172809037559583,160.99295770379385,1007.1229694323943,0.5277363391319767,0.8271675038147064
107,0.11376718436043759,0.018931644145416975,160.99488247398486,1007.1231417128666,1.0532000972976334,0.8181037326184233
108,0.11402597746062917,0.018698904934127326,160.99735376560878,1007.1230968115697,1.573937578913572,0.8072303322525446
109,0.1142417620654933,0.018475434100659636,161.0003474700824,1007.1228349502179,2.068553396193522,0.792806062631235
110,0.1144142333993514,0.018261612313919522,161.0038315790414,1007.1223574391398,2.512118870651264,0.7743217495087102
111,0.11454313991844506,0.018057713876737404,161.00776685528007,1007.121666707184,2.878514542770219,0.7546159572595185
112,0.11462813505526467,0.017864238675325224,161.01210765200025,1007.1207661146933,3.144268784287405,0.739587040331514
113,0.11466877028468454,0.017682094026819216,161.01680271306455,1007.1196597207867,3.29280622722176,0.7353032875569246
114,0.11466462996366057,0.01751255368071036,161.02179594706962,1007.1183522979475,3.318132604009705,0.744015505253774
115,0.11461555332756894,0.017357003952065873,161.02702731550164,1007.1168496822323,3.227160272704964,0.7624572338642562
116,0.11452186208571316,0.017216572215509953,161.0324338987404,1007.1151592438583,3.0395989737442903,0.7841639558552417
117,0.1143845169484481,0.017091783610828675,161.03795101880266,1007.1132902180816,2.78462125271043,0.8033400450340178
118,0.11420515000034734,0.016982382519919677,161.04351324461172,1007.111253830749,2.495002523422265,0.817015929596763
119,0.11398595447788305,0.016887392988045497,161.04905524745192,1007.1090632855136,2.201070612837981,0.8244719849043711
120,0.11372946016473921,0.016805404772501448,161.0545126865134,1007.1067336258557,1.9271618727173703,0.8261341269539375
121,0.11343827008634041,0.01673499080365872,161.05982336585882,1007.1042813932706,1.6918405817395765,0.82380833222921
122,0.1131148544748053,0.016675115800365497,161.06492870008537,1007.1017240584202,1.5108083615828818,0.8201217112458168
123,0.11276147266535953,0.01662540003494756,161.0697752559434,1007.0990793987994,1.399962423733264,0.8163179603898313
124,0.11238023563339689,0.01658615367716939,161.0743160819985,1007.0963650948213,1.376324844435068,0.8118120006410701
125,0.11197326492452611,0.016558179281924656,161.07851169898933,1007.0935986382469,1.4560059101122533,0.8063181461448924
126,0.1115428727359159,0.0165424254616224,161.08233078406238,1007.0907973840503,1.6498749349842683,0.8013661954389769
127,0.11109168644286337,0.016539631138880337,161.0857506125507,1007.0879785329586,1.9584525364779992,0.7991562471749056
128,0.11062266296999364,0.016550103801508377,161.08875730537684,1007.0851589871942,2.3679671488539853,0.8002770912143748
129,0.1101389788896644,0.01657371893353622,161.09134599670944,1007.0823551325408,2.849723661724461,0.8033669045036729
130,0.10964383390260139,0.0166101280688,161.09352112290154,1007.0795825637206,3.363853222823302,0.8065233137921488
131,0.10914025089958522,0.016659068198191282,161.0952969287216,1007.076855724016,3.866132175987893,0.8082605588637388
132,0.10863096617719724,0.016720623687801663,161.09669797421105,1007.0741875370891,4.315265394178439,0.8081698405883542
133,0.1081184628730129,0.016795316390740434,161.09775921485294,1007.0715892728683,4.6789171801010525,0.8074739006052992
134,0.10760513182592006,0.016883974548097366,161.09852535656765,1007.0690708302606,4.937726451991594,0.8081039672720709
135,0.10709348870929356,0.016987425762903463,161.09904951452836,1007.0666413201309,5.086467253861713,0.810125350446486
136,0.10658635777095885,0.01710613392793522,161.09939142394862,1007.0643096311205,5.132107253745616,0.8102329745724497
137,0.10608694790947713,0.017239922888999556,161.09961543634546,1007.0620847715468,5.089841190631901,0.804532278578998
138,0.10559878402119383,0.017387893380139678,161.0997884506485,1007.0599760028374,4.978493722275488,0.7936894885343173
139,0.10512550689803377,0.01754856175856927,161.09997796180616,1007.0579928247217,4.816540551472286,0.7841326194980878
140,0.1046706071097384,0.017720163292610395,161.10025045640555,1007.0561447541751,4.620099584262576,0.7829698442269143
141,0.10423718933017233,0.017901002535671735,161.1006702430402,1007.0544408113035,4.403338378050286,0.7914763120173758
142,0.10382785183875592,0.018089717525688567,161.10129857313783,1007.0528888123665,4.18018789797204,0.803442775351618
143,0.10344471370239577,0.01828535850993207,161.10219284662327,1007.0514947747671,3.9655392363696222,0.8102512308178407
144,0.1030895584516267,0.01848725766325466,161.1034058025281,1007.0502626770824,3.7742686293053964,0.8085565792137441
145,0.10276402032440046,0.01869475810843078,161.10498467335023,1007.0491945400844,3.6177130781905404,0.8026309861006369
146,0.1024697290556411,0.018906938231965747,161.10697028305597,1007.048290639039,3.4993717928693755,0.7982267794886458
147,0.10220834776692374,0.01912247239510825,161.10939607335143,1007.0475497403137,3.412549738628364,0.7951975274841419
148,0.10198148187537698,0.01933970299903096,161.11228712977882,1007.0469693443825,3.3414032941651683,0.7880348368181096
149,0.10179049511600759,0.019556898317450108,161.11565941670892,1007.0465458564806,3.264898390668179,0.7734798832564578
150,0.10163631566045421,0.019772589964759772,161.1195194170641,1007.0462745538989,3.162152473555693,0.7555901912111134
151,0.10151932296974182,0.01998585316698882,161.12386413638112,1007.0461493648586,3.017331573872191,0.7423544365723451
152,0.10143936838859532,0.020196414945831225,161.1286812415582,1007.046162702935,2.822246961557312,0.7382870141565624
153,0.10139592174265802,0.020404541379481302,161.1339491817115,1007.0463056132927,2.5760387276731223,0.7419512031010966
154,0.10138828610941913,0.020610742783714785,161.13963732759834,1007.046568231094,2.283424599671875,0.7501134175442805
155,0.10141580255174765,0.020815411055381174,161.14570622146692,1007.0469403263279,1.9533085142454922,0.7621669909239046
156,0.10147797299469913,0.021018536152568875,161.15210795005282,1007.0474117396496,1.5980292317128217,0.7799367286426175
157,0.10157445586425541,0.021219620104394366,161.15878661400936,1007.047972664262,1.2326854554065036,0.8026307282172569
158,0.10170493364935602,0.021417824046854533,161.16567895309302,1007.0486137700287,0.8744453934576697,0.8227000877521542
159,0.10186890349544596,0.02161228702358251,161.17271525888293,1007.0493261078377,0.54214921642685,0.829483808453539
160,0.1020654770433546,0.02180248986651466,161.17982061220584,1007.050100752616,0.2561591494456863,0.8169669085783967
161,0.10229327394509918,0.02198852469204039,161.18691631645947,1007.0509283226993,0.037974429449320724,0.787428460752103
162,0.10255045432142684,0.022171169194088677,161.19392132950946,1007.0517986862455,-0.09106304207459459,0.7501864920992986
163,0.10283487630223254,0.02235173697214244,161.2007535492471,1007.0527010782753,-0.11261310117097167,0.7183390240906562
164,0.1031443137482207,0.0225317558124246,161.20733092345216,1007.0536245422302,-0.015533776578095626,0.7040365419431436
165,0.10347664949707039,0.022712593653540246,161.2135724204485,1007.0545584180707,0.20003879156627846,0.7132259339923251
166,0.10382997299631726,0.022895179462836403,161.2193988517762,1007.0554926797814,0.5204905042279222,0.7424182449426818
