,Top chamber pressure,Bottom chamber pressure,Air frame pressure,Absolute pressure,Plate force,ACCL
715,0.10594919392432023,0.023943961525544427,161.62392093422048,1007.9545360937245,-2.9963701181806144,9.624879868288078
716,0.1058909627967977,0.02402914556740585,161.62143433858733,1007.9549285547462,-2.8480596592176752,9.59864735284723
717,0.10582488219391566,0.02412362658226236,161.61839640985187,1007.9552548440171,-2.6870909461727592,9.625425524568591
718,0.10575066349729544,0.02422756875827681,161.61484627795156,1007.9555136261075,-2.514860002063898,9.713146073124207
719,0.10566809058468739,0.024341071713624735,161.61082905338344,1007.9557053032283,-2.3298939280629156,9.839361351735795
720,0.10557699376192792,0.02446424297991961,161.60639538911502,1007.9558317888751,-2.129531338301433,9.953197562343098
721,0.10547728475507025,0.0245971808852637,161.60160094394587,1007.9558962783071,-1.9115850544329973,10.00485035831918
722,0.1053690176681625,0.024739879700988506,161.59650561180007,1007.9559031022319,-1.6756869269945156,9.982611077449773
723,0.10525240549892725,0.024892160893258845,161.5911725328169,1007.9558575748414,-1.4240856908036719,9.921073758915243
724,0.10512776721940079,0.02505370367079079,161.58566705353596,1007.9557657129828,-1.1619136834759018,9.874290164393306
725,0.10499545591330145,0.025224130772468437,161.58005581499862,1007.9556338346006,-0.8970263832930243,9.880306490860642
726,0.10485583642575973,0.025403040700372567,161.5744059885199,1007.9554681809018,-0.6393848531342599,9.940646565068839
727,0.10470931948126481,0.025589942039148644,161.56878454604518,1007.9552746904163,-0.3998944046010564,10.022198788489623
728,0.10455639370777203,0.025784163485582514,161.5632574663773,1007.9550589077022,-0.18897059166660313,10.07924740773563
729,0.10439760503640487,0.025984845635790274,161.55788885437224,1007.9548259209301,-0.015465713306241469,10.081817617809858
730,0.104233499943761,0.026191029109239605,161.55274002425463,1007.9545802631968,0.11361400205239391,10.029238902238216
731,0.10406459369778785,0.02640174722068918,161.5478686018814,1007.9543258230165,0.19239135909054994,9.941992090308156
732,0.10389139473946978,0.02661603687874192,161.54332761512077,1007.9540658744559,0.21439600551133964,9.845985163571642
733,0.10371444797189716,0.026832890972363705,161.53916452360968,1007.953803242538,0.1709626840252838,9.763881805134886
734,0.10353433859476617,0.027051251677800935,161.53542026574496,1007.9535404696431,0.05207162220528261,9.713423441573704
735,0.10335165279591883,0.027270087999514726,161.53212851475212,1007.9532798481731,-0.14910075884504437,9.706365359172867
736,0.10316695183887994,0.027488483877133874,161.5293152691281,1007.9530233319359,-0.429934627162865,9.745928884738841
737,0.10298080217687516,0.027705638268747078,161.52699870531987,1007.9527724610739,-0.7745487386035563,9.824339114079688
738,0.10279383293024234,0.02792078097607537,161.52518911157108,1007.9525283929078,-1.1549690799637418,9.922735996576888
739,0.10260675327898244,0.02813310947379452,161.5238888079711,1007.9522919852427,-1.5365573104694406,10.014535194489664
740,0.10242030440091983,0.02834182482418489,161.5230921088647,1007.9520638132094,-1.8850929100092344,10.071326879749895
741,0.10223519436028791,0.028546222084602963,161.5227854184401,1007.9518440874126,-2.1729559833481247,10.071145494459765
742,0.10205208241141771,0.02874572194032656,161.52294746941146,1007.9516325793276,-2.383061348853758,10.009592741232275
743,0.10187161890758441,0.028939797521019574,161.523549679851,1007.9514286644022,-2.5103918605829207,9.907346760442021
744,0.10169448081636587,0.029127871809263902,161.52455666676573,1007.9512314447844,-2.5610970427305375,9.803110659995761
745,0.10152135282246193,0.029309289174551816,161.52592698603826,1007.9510398219411,-2.5491337733625983,9.733322690397754
746,0.10135287791112181,0.029483366180689342,161.52761407385626,1007.9508524666496,-2.4917424541836937,9.713241107939176
747,0.10118964367818283,0.02964942693875895,161.5295672386393,1007.9506677738144,-2.4060639674026874,9.73177142782985
748,0.10103222618799418,0.029806752744366553,161.53173255723777,1007.9504839238836,-2.3076549262351023,9.762808171629965
749,0.10088124001578119,0.029954492445241246,161.53405365399382,1007.95029904125,-2.2093767764182317,9.784868699980777
750,0.10073733394927674,0.030091639532286368,161.53647244255882,1007.9501112982477,-2.1195418829646755,9.79233734590347
751,0.10060113752165922,0.0302171062696847,161.53892994211054,1007.9499188472232,-2.0404186070206194,9.79072879859109
752,0.1004732226987183,0.030329808776353995,161.54136725082964,1007.9497196464686,-1.9686359960762374,9.785784679151828
753,0.10035412387283914,0.0304286682947492,161.543726669279,1007.9495113668119,-1.8973207715995741,9.77870340330773
754,0.10024438495997273,0.030512545711075156,161.5459528769741,1007.9492914744465,-1.818800077772913,9.770312445208573
755,0.1001445686746527,0.03058021767508842,161.54799404645865,1007.9490574018137,-1.7272755185797166,9.767458821015707
756,0.10005521173589887,0.03063045850131397,161.54980284866696,1007.9488066564902,-1.620863899672095,9.782647696585954
757,0.0999767810550833,0.03066216971185577,161.55133738632347,1007.9485368272855,-1.501752751328091,9.823838744686627
758,0.09990969133664541,0.030674448908009716,161.5525620567917,1007.94824559665,-1.3743584605730348,9.88031204999169
759,0.0998543753602649,0.03066656838707982,161.55344823186473,1007.947930863969,-1.2434322878840263,9.916679289322824
760,0.09981133799079187,0.030637944479994704,161.55397462193642,1007.9475909280752,-1.1138937483862534,9.88646762721269
761,0.09978114510700614,0.030588186066668945,161.55412729380015,1007.9472245888086,-0.9920468091431403,9.766503834849605
762,0.09976437273951302,0.030517203932426226,161.5538994140142,1007.9468311037351,-0.8865311453135405,9.590983548919121
763,0.09976157932664204,0.030425273488385585,161.5532907958414,1007.9464100706738,-0.8083591405540034,9.449365152380045
764,0.09977332061729051,0.030312985669457827,161.5523072661186,1007.9459613495532,-0.7711492569154075,9.443833960733768
765,0.09980016061452758,0.03018114614496943,161.55095986995218,1007.9454850477036,-0.7919290359846798,9.652315837783268
766,0.0998426301124469,0.030030736645563286,161.54926405004778,1007.9449814955935,-0.8900699610660894,10.106734277361033
767,0.09990115039814128,0.029862966997936325,161.54723901125487,1007.9444511535469,-1.0819707265051477,10.71474039482452
768,0.09997599026919281,0.029679329326472156,161.54490735064294,1007.9438945001261,-1.3735219649800783,11.136696568963321
769,0.10006729454849861,0.0294815602241592,161.54229484900006,1007.9433120259954,-1.7557101770315668,10.802847980414251
770,0.10017514481222528,0.02927152671340974,161.5394302923299,1007.9427043685573,-2.2064996587499124,9.222751115118408
771,0.10029957883445095,0.029051143776651047,161.53634525942192,1007.9420724768037,-2.697337653888802,6.662684841575811
772,0.10044054479302593,0.02882239352650172,161.53307386825406,1007.941417686321,-3.2002898195470024,5.449004732418116
773,0.10059784146737638,0.02858739263695882,161.52965251443936,1007.9407417085364,-3.6926187202996488,7.458910290388318
774,0.10077110659688197,0.028348393832881805,161.52611960046474,1007.9400466475432,-4.157990928920974,9.679053691494065
775,0.10095985015785149,0.028107683577684905,161.52251515502803,1007.9393351167377,-4.58575947019758,11.086428901358092
776,0.10116347067885909,0.027867460315547998,161.5188802561193,1007.9386103721646,-4.969862729539074,12.967014009145501
777,0.10138121543579634,0.027629795636450273,161.51525634566576,1007.9378763094767,-5.307437846325001,15.550454615287604
778,0.10161212118549412,0.027396673274345352,161.5116845975434,1007.9371372851739,-5.597296750043498,16.93931574060022
779,0.10185500456989593,0.027170004724987772,161.50820532468168,1007.9363979015861,-5.839512970256166,15.71691986785172
780,0.10210851859749434,0.02695155503715277,161.50485726112078,1007.935662928917,-6.036491293365245,12.354156950984605
781,0.10237121906200601,0.026742832432925953,161.50167667228823,1007.9349373755675,-6.193720111287888,8.779597950787975
782,0.10264157939375765,0.02654505149335951,161.49869645177412,1007.9342265504538,-6.318316006384244,7.132381389503574
783,0.10291795899764247,0.026359202851365508,161.49594537200298,1007.9335359583205,-6.415742909466964,8.33827665785865
784,0.1031985900067427,0.02618614675659575,161.49344747303795,1007.9328710279942,-6.486821768868367,11.771720293827808
785,0.10348162932610151,0.026026633256109696,161.49122149353786,1007.9322368360768,-6.526964496966819,15.793642324030879
786,0.10376524879942055,0.025881253601213492,161.48928042410245,1007.931637958337,-6.528272068411866,18.453152463499606
787,0.1040476982278752,0.025750416445111744,161.4876314241245,1007.9310784108628,-6.483267901994793,18.65808640564949
788,0.10432732039948613,0.025634402402584983,161.48627623511365,1007.9305615744224,-6.387888392056368,16.795632428970343
789,0.10460256293594386,0.025533435510759653,161.4852119564103,1007.9300900925844,-6.242461972326012,14.23244564803203
790,0.10487202873797778,0.02544767948344049,161.4844318543938,1007.9296658298973,-6.051231323675026,12.005668987066924
791,0.10513454125072103,0.025377164411474386,161.483925904483,1007.929289920918,-5.821267135360628,10.052268573237466
792,0.10538916749199341,0.025321740910492288,161.48368101190795,1007.9289628162965,-5.560946173645426,8.094219871250703
793,0.10563518923503445,0.025281118228602382,161.48368110210274,1007.9286842289947,-5.277877674017375,6.918443145167305
794,0.10587207481363355,0.025254927388929628,161.4839072934297,1007.9284530183028,-4.9766471980373055,7.778239362400112
795,0.1060994940792372,0.025242719389212215,161.4843382333106,1007.9282671550018,-4.657508276617655,9.788010711911355
796,0.10631735176027698,0.02524390321544277,161.48495058330963,1007.9281238537162,-4.3171990592937135,11.448506972916377
797,0.10652578376564033,0.025257715214809833,161.48571958921326,1007.9280198099834,-3.952226305837357,12.458725525031115
798,0.10672510941347886,0.025283268806742108,161.48661963889046,1007.9279514272235,-3.5636791533041787,13.261222908272789
799,0.10691579310597583,0.025319623625378002,161.48762471716313,1007.9279150168021,-3.1611776180531095,13.90667430873036
800,0.10709845424529245,0.025365792291091906,161.4887086877919,1007.9279070483169,-2.763039788853945,13.905976912750283
801,0.10727389135272902,0.02542069950219352,161.4898453869464,1007.9279244640585,-2.39171234717967,13.147578590016558
802,0.10744305952802648,0.025483183320143113,161.49100863538982,1007.9279649429303,-2.0668409920184914,12.077914336618985
803,0.1076069996168795,0.025552073445696998,161.4921723570178,1007.9280270013974,-1.7995166925732136,11.132478310034838
804,0.10776677867310919,0.02562627216216127,161.49331090746338,1007.9281099540472,-1.5897098060437926,10.501836716480124
805,0.10792347876785695,0.02570475559051842,161.4943995594015,1007.9282138489285,-1.4274075200378462,10.244736307539503
806,0.10807819931583168,0.025786519053192715,161.49541504153132,1007.9283394336973,-1.2967429842179854,10.384486054579094
807,0.10823201925812515,0.02587055983276314,161.4963360841734,1007.9284880970935,-1.1807630961133526,10.973801317489833
808,0.10838592390801237,0.025955924876707476,161.4971439740418,1007.928661724868,-1.0644239178806245,11.943012230163653
809,0.10854075120055633,0.026041748872443624,161.4978231351457,1007.9288625081739,-0.9355897895007743,12.899607246193693
810,0.10869718138428824,0.026127219947778293,161.49836173194558,1007.929092793479,-0.7857845591479347,13.269514442580068
811,0.10885572791320225,0.026211516761433386,161.4987522357357,1007.9293549732158,-0.6122209648093602,12.681976453905833
812,0.10901668364070283,0.026293805672833927,161.49899185992533,1007.9296513116611,-0.4204674067412597,11.276007864925225
813,0.10918004450418828,0.026373304823364585,161.49908278062904,1007.9299836610548,-0.2255880319901138,9.617068888907992
814,0.10934547754354715,0.02644932764237298,161.49903207783407,1007.9303531918596,-0.05076808555341472,8.219835661181666
815,0.10951235783805051,0.026521242038668465,161.4988513566861,1007.9307602926904,0.07589350959817409,7.230806814921401
816,0.1096798266626353,0.02658839287596395,161.49855607514377,1007.9312046257008,0.12610721431498462,6.578651296583405
817,0.10984681616765311,0.026650085670377754,161.49816469624625,1007.9316851751407,0.07786246788818119,6.137505707778534
818,0.11001205022568557,0.02670565111013686,161.49769781655368,1007.9322001719795,-0.07765787243072708,5.786312431005831
819,0.11017407777434247,0.02675450718797748,161.49717735091653,1007.9327469414131,-0.33213258664301293,5.58325636450893
820,0.11033135890875322,0.026796146162558987,161.49662575705736,1007.9333218108525,-0.662056963130425,5.79209434624525
821,0.11048235584497784,0.02683008259793179,161.4960652662429,1007.933920134288,-1.0358397863610094,6.526928408325774
822,0.11062557721619257,0.026855854350090996,161.49551713594212,1007.9345363575626,-1.4219032353255372,7.5575470346066975
823,0.11075958768612149,0.026873090390711306,161.4950009737513,1007.9351640572265,-1.7940126950302613,8.441540670877252
824,0.11088303319201327,0.026881559932645075,161.49453416380223,1007.9357960098295,-2.133128342658793,8.648621094717795
825,0.11099469275319604,0.026881143051493427,161.49413139437485,1007.9364243751637,-2.4273904902647985,8.395641916575682
826,0.11109351061494462,0.02687177672426639,161.49380429177756,1007.9370409478365,-2.671658233611275,10.16577701321809
827,0.11117857341631779,0.026853463565835768,161.49356120621957,1007.9376373498388,-2.866551962609641,15.174355348827227
828,0.11124906483248474,0.02682633518101391,161.4934071864151,1007.9382051275222,-3.016689019867421,20.246672169713563
829,0.1113042582163642,0.026790679645206945,161.4933440849108,1007.9387358437167,-3.128942197317201,22.051812384388406
830,0.1113435531685189,0.02674689278192352,161.4933706811111,1007.9392212380981,-3.2118996054721762,19.42093687506101
831,0.11136650276252551,0.02669541990460875,161.49348279571183,1007.9396534015679,-3.2763537247637444,13.91992655105263
832,0.11137280004006211,0.02663676123109692,161.493673479559,1007.9400248711004,-3.335587939858435,8.815618655232852
833,0.11136226019398482,0.026571511637880803,161.49393332299488,1007.9403286602931,-3.4049583925322366,6.56616202977301
834,0.11133484622399038,0.026500345050600855,161.49425078645314,1007.940558345573,-3.5007927431999875,5.704028178150697
835,0.11129072366639135,0.02642392487322682,161.49461237818167,1007.9407082764948,-3.6378464069987544,4.189273997451474
836,0.11123028267063106,0.026342824614958123,161.49500259620757,1007.9407738236495,-3.825090084696484,2.3159838230671603
837,0.11115409873308779,0.02625753239487491,161.49540373497754,1007.9407515189574,-4.061789147804859,2.070875893904766
838,0.11106287318885767,0.026168503150852986,161.49579574381022,1007.9406390618085,-4.336478855619596,3.0661460903786244
839,0.11095740881827636,0.0260761658933508,161.49615624486532,1007.9404353157124,-4.629740182361864,3.438728459460081
840,0.11083861694819774,0.025980867884198497,161.49646072715277,1007.9401404042532,-4.919590999054499,3.0117272105998754
841,0.11070750338467303,0.025882837263755985,161.4966829276799,1007.9397558579608,-5.187026376187561,2.049647220069188
842,0.11056511102494677,0.025782230025638952,161.4967953864354,1007.9392846932066,-5.41911598259383,1.2037349527104115
843,0.11041246380915398,0.025679217205777465,161.49677003907914,1007.9387314093705,-5.6085567130842335,1.7022259867406708
844,0.11025056393260564,0.025574015686404123,161.49657864433848,1007.9381020051487,-5.7510566805463625,2.49737571854014
845,0.11008042926095737,0.02546684466490797,161.49619299561573,1007.9374040597288,-5.843090048538805,2.997333433433985
846,0.109903108805421,0.025357891964925293,161.49558507387002,1007.936646774145,-5.881415746563071,3.24555303781609
847,0.10971964724868612,0.025247357750295192,161.49472733393185,1007.9358408400823,-5.863998571244409,3.4558058558509335
848,0.10953103921782896,0.025135531003566875,161.49359321424944,1007.9349981419645,-5.791082816996848,3.8384404912115504
849,0.10933822501195681,0.025022803426194083,161.49215784885857,1007.9341314448584,-5.665413634630184,4.429612797238432
850,0.10914211785839167,0.02490960695720099,161.49039891053604,1007.9332542003821,-5.491665178785517,5.02383385855705
851,0.10894360630832375,0.024796362061343634,161.48829751570827,1007.9323804384204,-5.275739438094142,5.2749309716944675
852,0.10874351019042149,0.024683504522687895,161.48583910251588,1007.9315246090467,-5.024275416444688,4.942195955158489
853,0.10854253481856747,0.02457154587540316,161.48301413994173,1007.930701301344,-4.744376441464794,4.102567934658761
854,0.10834127153444034,0.024461073841724364,161.47981851754415,1007.9299248990225,-4.443545806215141,3.088934080336859
855,0.10814022936438367,0.0243526823586268,161.47625357433486,1007.9292092760857,-4.130025733088061,2.205993261414511
856,0.10793984261169887,0.024246918750682356,161.4723259056557,1007.9285675518405,-3.813659637611103,1.5705474750237742
857,0.1077404374923925,0.024144308517632027,161.46804715707214,1007.9280118550445,-3.506417418132777,1.3252229493647762
858,0.10754220259726253,0.024045402352010973,161.46343384882377,1007.9275531016602,-3.2212072002767655,1.7357136195230614
859,0.10734520620269876,0.023950749053122042,161.45850707097597,1007.927200868851,-2.9688659456367077,2.4420131386214217
860,0.10714943988211313,0.023860793136785678,161.45329195147005,1007.9269633941793,-2.7548700890653777,2.9684876087640895
861,0.10695483138959312,0.02377579915550884,161.44781703016602,1007.9268476062282,-2.577566306767558,3.042149282368836
862,0.1067612141705902,0.02369587458639932,161.44211374759288,1007.926859084809,-2.4285658554764638,2.6210511998804833
863,0.10656830776748115,0.023621039842945248,161.43621611246428,1007.9270019731722,-2.294898759654167,1.8951604960950679
864,0.10637575991210843,0.02355124182209088,161.4301604285566,1007.927278968561,-2.162750211053684,1.26338652743192
865,0.10618322822610766,0.023486291786740866,161.4239849261761,1007.9276914602044,-2.022688977350441,1.1736252269865317
866,0.10599042974020859,0.023425817334076553,161.4177292706082,1007.9282397209323,-1.8747329880441157,1.272106310125264
867,0.10579712188657552,0.023369312334105684,161.4114340534539,1007.9289229945834,-1.7300220315737604,1.1709346113370562
868,0.10560305600517983,0.023316256393319846,161.40514038260645,1007.9297394325358,-1.606962526808175,0.986690798778826
869,0.10540796851504622,0.023266201129868696,161.39888959627976,1007.9306859822416,-1.5235815783899795,1.0515554331943417
870,0.10521161706386262,0.02321877906366132,161.39272304973045,1007.9317583456375,-1.4909506236847818,1.320885198134747
871,0.1050138073393398,0.023173700776879576,161.3866819169967,1007.9329510134229,-1.5110811693870048,1.5616350285255531
872,0.10481437265953505,0.023130817064239053,161.38080698250943,1007.9342573045291,-1.5783320529886424,1.721766140249139
873,0.1046131381247271,0.02309022152306919,161.37513841283928,1007.9356693898626,-1.681755653368299,1.831529335188687
874,0.10440992720909534,0.02305229611799277,161.3697154862915,1007.9371783851359,-1.8078795028941457,1.9088179559981782
875,0.10420461462494383,0.02301765878434279,161.36457627442783,1007.9387745949764,-1.9444049934922418,1.923192861895316
876,0.10399716802250938,0.0229870846948805,161.35975732842533,1007.940447842477,-2.0835472960884616,1.8319535772704036
877,0.1037876348125397,0.022961491959884776,161.3552934648858,1007.9421877136717,-2.222949988899046,1.635051351771119
878,0.10357610096667977,0.02294198126181149,161.35121770347388,1007.9439836358805,-2.3638894702765114,1.3920264645595926
879,0.10336268210533958,0.02292983156360092,161.34756126543348,1007.9458248944896,-2.5084604518654885,1.1861015032130076
