,Top chamber pressure,Bottom chamber pressure,Air frame pressure,Absolute pressure,Plate force,ACCL
349,0.09467932598480397,0.004778761112063603,157.70832708144977,1007.6174604241138,3.702744413193251,0.7416367857435175
350,0.09498516866170574,0.004549804405093149,157.7118274235786,1007.6155817746625,4.244332014163177,0.7171503255021392
351,0.09531505060572083,0.00430638288383739,157.71563251625085,1007.6137401519957,4.690061345280441,0.6904353762156319
352,0.09566725534924275,0.0040506625996558545,157.71973739240659,1007.6119312176208,5.013923797734897,0.6633156854572624
353,0.09603993248406875,0.0037846760024761988,157.724135790408,1007.6101495225926,5.202363509512416,0.638717518950544
354,0.09643099089848402,0.0035104923855088736,157.7288199159966,1007.6083885226317,5.259674071408234,0.6395911119911183
355,0.0968380867162167,0.0032303180163588126,157.7337803533914,1007.6066405275031,5.207869876896943,0.6824337956844502
356,0.09725872868313439,0.0029464161895175296,157.739006000415,1007.6048968258592,5.080826343618611,0.7336782423932872
357,0.09769043102249331,0.002660885114879651,157.7444839334326,1007.6031480231314,4.914873130006114,0.7606045711756049
358,0.09813080888991775,0.0023754512000305943,157.75019919836683,1007.6013844156004,4.739881676477843,0.7713013545540528
359,0.09857755473216977,0.0020914313081797703,157.75613460820287,1007.5995962612476,4.574340928791287,0.7860461655949946
360,0.09902831946585221,0.0018098917846259529,157.76227070792893,1007.59777389784,4.425534605552919,0.7999166577367676
361,0.0994805934642452,0.0015318874293325816,157.76858601746213,1007.5959076871364,4.293656817822253,0.7960229058036421
362,0.09993168631804512,0.0012586095044762454,157.77505745831797,1007.5939878954732,4.17715215506032,0.7716895926071241
363,0.10037883313710706,0.0009913401342269573,157.78166074893755,1007.5920047523553,4.0764346137607035,0.7395766838721936
364,0.10081936422941896,0.0007312508727341792,157.78837064129064,1007.5899488040311,3.994501419986662,0.7151874943952983
365,0.10125083340963262,0.0004791994354567312,157.79516101232582,1007.5878114451065,3.9348387111004612,0.7060170168070887
366,0.10167103323643088,0.00023568491412837914,157.802004921439,1007.5855854344519,3.898598665014937,0.7096312837568677
367,0.10207790863952403,1.009016151445274e-06,157.80887481292118,1007.5832652286995,3.883023407624947,0.7189236890042199
368,0.10246945678444119,-0.0002244584359754629,157.81574297829928,1007.580847046935,3.8813791627268017,0.7276604078416046
369,0.10284371158059304,-0.00044008663311594125,157.82258217954558,1007.5783287887316,3.8835192546397934,0.7331403525498544
370,0.10319884558084513,-0.0006449885403273094,157.82936620233275,1007.5757100635064,3.8767797574545213,0.7359567584466267
371,0.10353333432891673,-0.0008382093165961718,157.83607017893357,1007.5729923990324,3.8479040184413833,0.7385715061081186
372,0.10384608336490156,-0.001018957315979027,157.84267064313136,1007.5701794336318,3.7863249201601974,0.7438982878321678
373,0.10413644007392447,-0.0011867102626224144,157.8491453679503,1007.5672769154747,3.6873408632791893,0.7527042705205262
374,0.10440408600754106,-0.0013411237729862148,157.8554731507168,1007.5642924826883,3.5530684425368264,0.7605864129702772
375,0.10464888597525525,-0.00148181815884889,157.86163376677138,1007.5612352579706,3.390822733228255,0.7593616903875569
376,0.10487079831634007,-0.0016082116768635223,157.86760816680126,1007.5581153861554,3.2103345480962915,0.7440000493854217
377,0.10506990072022164,-0.001719536866413956,157.8733787714599,1007.5549437605123,3.0213941822289456,0.7181293095039708
378,0.1052464985374627,-0.0018150470275853058,157.87892966084866,1007.5517320629624,2.8328125934188435,0.6921317891428768
379,0.10540122381242337,-0.0018942830315696777,157.8842465565193,1007.5484929755971,2.652413471690167,0.6763573799821666
380,0.10553503948338117,-0.0019572231926626993,157.8893166154006,1007.5452403431946,2.4868727381399083,0.676043984640365
381,0.10564912842180141,-0.002004219151407672,157.89412817046247,1007.5419891485743,2.340493505890926,0.690296212463718
382,0.10574472954640682,-0.0020357704243628106,157.89867060422944,1007.5387552190496,2.212968331032158,0.7128981190722172
383,0.10582302332626141,-0.0020522994372097272,157.90293442822707,1007.5355547009792,2.0972214460749043,0.7344596375810197
384,0.1058851343432899,-0.0020540840608630163,157.90691148145683,1007.5324035430508,1.979108432602139,0.7464921527251374
385,0.1059322365342017,-0.0020413921456939525,157.91059514636166,1007.5293172424863,1.840232003433151,0.745788135617969
386,0.10596567660172289,-0.0020147185100746275,157.9139805437486,1007.526310859148,1.6633536012880725,0.736418779883417
387,0.10598701734808608,-0.001974951054121657,157.91706467335013,1007.5233991093156,1.4381258731914386,0.7268863427756199
388,0.10599795640165928,-0.001923343498283287,157.9198464854614,1007.5205963717107,1.1645514776220125,0.724125653126996
389,0.10600016645913382,-0.0018613085894963464,157.92232694742796,1007.5179165174271,0.8527652672704775,0.7312042517765834
390,0.1059951639290204,-0.0017901683259964544,157.92450915952094,1007.5153725838449,0.5194432019237709,0.7490383059721029
391,0.10598429145376498,-0.0017110227566067386,157.92639845354086,1007.5129764707161,0.18259662953289535,0.7755226952399812
392,0.10596881250677082,-0.0016248077453000472,157.92800237116762,1007.5107388249592,-0.1428268517301916,0.8035652287199732
393,0.10595003254758519,-0.0015324661157274538,157.92933050824732,1007.5086690572896,-0.4466041980204736,0.8231084116224285
394,0.10592934189027299,-0.0014350679103424058,157.93039427510337,1007.5067753210444,-0.7216407076249283,0.8265478161996188
395,0.10590813485405585,-0.0013337600567753783,157.93120664352668,1007.5050643717132,-0.9603359801411386,0.8134853628374984
396,0.10588765669976509,-0.0012295677263043764,157.93178195271034,1007.5035413084304,-1.151464247223977,0.7903137437903228
397,0.10586888629164708,-0.0011231923379798308,157.93213574599375,1007.5022092769223,-1.280180542223441,0.7644728998274534
398,0.10585252950938354,-0.001014959105471783,157.9322844809961,1007.5010693200821,-1.3319154163615963,0.7393389729510569
399,0.10583910709735003,-0.0009049538306701964,157.93224499527858,1007.5001204857241,-1.298126088639961,0.7151186509750564
400,0.10582904776724039,-0.0007932386583542825,157.93203378015866,1007.4993600591882,-1.1806367003809939,0.6938686978305302
401,0.10582269755237773,-0.0006799716695557245,157.93166624606866,1007.4987837059787,-0.9926448952934663,0.6820550362039992
402,0.10582022887963638,-0.000565336459826865,157.93115621147268,1007.4983854167555,-0.756641094522557,0.6864512093626696
403,0.10582152235944621,-0.00044934876178750305,157.93051578313165,1007.4981572672376,-0.5005045421312673,0.7065541230903419
404,0.10582612418611682,-0.0003317104732743873,157.9297555769054,1007.4980891470237,-0.25283565147402953,0.7332837080196568
405,0.10583332208430364,-0.0002118449250656901,157.92888501510657,1007.4981686855134,-0.03836202332060168,0.755586020857741
406,0.10584228589339863,-8.91043666537509e-05,157.92791244987058,1007.4983814402293,0.12536974788300626,0.7667615442855438
407,0.10585216890281027,3.699552494296516e-05,157.9268450506176,1007.4987112106817,0.22866986257380972,0.7667390054421774
408,0.10586210050215367,0.000166678318029239,157.92568856875798,1007.4991403337872,0.2674932874471452,0.7607299731886372
409,0.10587109046960619,0.0002999933169466803,157.92444718661545,1007.4996498797128,0.23991211312599603,0.7561473436499813
410,0.10587793935851161,0.000436978863923526,157.92312361955672,1007.5002197456612,0.14366980996620526,0.7589755364076608
411,0.10588124474674786,0.0005777372044413268,157.92171946600098,1007.5008288113314,-0.02411665559451137,0.7682323081521016
412,0.10587951297155401,0.0007223363088279015,157.9202356635918,1007.5014553681676,-0.2659063945332676,0.7737206308979776
413,0.10587130090847059,0.0008706038527499763,157.91867290704718,1007.502077827749,-0.5819110323864933,0.7653033193869627
414,0.10585528982064521,0.0010219753632204397,157.91703192467716,1007.5026755282317,-0.9669092403511144,0.7451741103376908
415,0.1058302456750778,0.0011755215614796704,157.9153135863427,1007.5032294523468,-1.4061092492454605,0.726646096673959
416,0.10579490867622728,0.0013301401072565889,157.91351892933238,1007.5037227079301,-1.8728573973473956,0.7188384587025229
417,0.10574791445012001,0.0014847696282692495,157.91164919128738,1007.5041407352744,-2.3311865059728447,0.7175055530542661
418,0.10568783047822207,0.0016384668085406104,157.90970581646326,1007.504471430417,-2.7431082082838643,0.7130961439805488
419,0.1056133045498055,0.001790289935631241,157.90769036364324,1007.5047054009765,-3.0770271823010944,0.7014358730292352
420,0.10552323693092547,0.0019390794504448477,157.90560432793018,1007.5048363128362,-3.313316461962984,0.686441255060945
421,0.1054168720462141,0.0020833090280698444,157.90344894095838,1007.5048611301401,-3.4459632219222485,0.6752678394431479
422,0.10529376799227652,0.002221132180493754,157.90122502484948,1007.5047801300132,-3.4814177895498872,0.6708677939352553
423,0.10515369443194907,0.002350601684341233,157.8989329751871,1007.5045966478524,-3.4353194404532346,0.6709616556314373
424,0.1049965604267544,0.0024699076117743156,157.89657285975656,1007.5043165906768,-3.327338242017433,0.676072631322157
425,0.10482244214828705,0.0025774686313152296,157.8941444978617,1007.5039479275358,-3.175926393389531,0.6971445662456219
426,0.10463169389016487,0.0026718273651153085,157.89164740213766,1007.5035003631876,-2.995867041680519,0.7474368876211304
427,0.10442505422765229,0.002751452872781866,157.8890806001575,1007.5029851460924,-2.799783803657874,0.820646963680635
428,0.10420365283926875,0.0028146243444935404,157.88644245239735,1007.5024148099951,-2.601729949061827,0.8872018897993682
429,0.10396888850903692,0.0028595027131677266,157.88373060474265,1007.5018027192039,-2.4195579184235356,0.9153941347739871
430,0.1037222437221036,0.0028843454973156812,157.88094217033395,1007.5011624041143,-2.273956671493657,0.8969630096345679
431,0.10346515006325196,0.002887710189339438,157.87807411180782,1007.5005068342305,-2.184433307366916,0.8556727432336846
432,0.10319897401039801,0.0028685079708643136,157.87512367124557,1007.4998479167728,-2.1640012595775246,0.8259080332843167
433,0.10292509233859974,0.0028258939107583436,157.87208869147804,1007.4991963743971,-2.214445762640416,0.8234889189494468
434,0.10264495785033899,0.002759115868435531,157.86896776171977,1007.4985618548251,-2.3239233637916,0.8431084616317557
435,0.10236007356926918,0.002667480971064784,157.86576022608378,1007.4979530281158,-2.468233631171941,0.8664599749241745
436,0.1020718796752037,0.00255049530420566,157.86246618826686,1007.4973775451489,-2.615398016116444,0.8669399605153945
437,0.10178164080046895,0.0024080749103634704,157.859086647442,1007.496841902481,-2.731493497712542,0.8307312143131692
438,0.10149042816716995,0.0022406553774613146,157.85562378205964,1007.4963514276214,-2.7860152988548776,0.7767748443770393
439,0.10119921501004878,0.0020491038557927076,157.85208129798266,1007.4959105771181,-2.756365068501765,0.74055433051434
440,0.10090901478276909,0.0018344943105822248,157.84846473745787,1007.495523465358,-2.631073420890637,0.7316966945523865
441,0.10062096288424505,0.0015979142566817832,157.84478166071665,1007.4951943690845,-2.4105354707281066,0.7315707654802679
442,0.10033629239682322,0.0013404390131938196,157.84104170042326,1007.4949280470374,-2.104696458500918,0.728924459618969
443,0.10005624422233016,0.001063264387812974,157.83725660018766,1007.4947298374229,-1.7292582257145526,0.7269287067209826
444,0.0997820086666955,0.0007678563508208341,157.83344029414366,1007.4946055966449,-1.303036601883953,0.7285649567223593
445,0.09951476649487773,0.00045596644648853926,157.8296089355834,1007.4945616687502,-0.8476462197947541,0.7306492725993255
446,0.09925580858093846,0.00012947667275562842,157.82578078892845,1007.4946050267743,-0.38814802603242526,0.7298210275346164
447,0.09900664280329127,-0.00020981765685370362,157.82197600222221,1007.4947435037265,0.047625324121739254,0.7271095668630853
448,0.09876899792378856,-0.0005603210005161351,157.81821628634748,1007.494985923553,0.4318601653444034,0.7255529943479214
449,0.09854470417754987,-0.0009205584048153212,157.81452451634178,1007.4953419826653,0.7406478336180484,0.7260633075970795
450,0.09833552178102808,-0.0012889652412587118,157.8109243063146,1007.4958218103396,0.9575160635937294,0.727187479777178
451,0.09814302898307356,-0.0016637089191154815,157.80743956526356,1007.496435321047,1.0754810442583107,0.7284589412284409
452,0.09796863171856457,-0.0020426829274415802,157.80409395445983,1007.497191649739,1.0969866814548652,0.7316824091459497
453,0.09781366139758343,-0.002423681817345724,157.80091020957283,1007.4980988433647,1.032069324115561,0.7375112069068936
454,0.0976794648873181,-0.0028046233823039125,157.7979093982245,1007.4991637101722,0.895873888918679,0.7437829888163892
455,0.0975674026760899,-0.0031836466874408794,157.79511022980626,1007.5003916715596,0.7064613878221166,0.748376504952125
456,0.09747874734527831,-0.003559016819492744,157.7925285543676,1007.5017865611329,0.4831830924427294,0.7502156766694914
457,0.09741455855866599,-0.003928924937769254,157.7901771550108,1007.5033503812017,0.24538880479896363,0.7475891686350651
458,0.09737562844791461,-0.0042913522108228965,157.78806579210308,1007.5050831241365,0.011189142317647338,0.7387789024107485
459,0.09736252211961095,-0.004644099986096379,157.78620134130307,1007.5069828207633,-0.2036520017816983,0.7240515624346802
460,0.09737564804261455,-0.004984932723552674,157.78458791992261,1007.5090458191505,-0.3865289857497629,0.7050965937325249
461,0.09741526988501877,-0.005311679715219362,157.78322700555876,1007.511267107631,-0.5285269312802967,0.6842797026459659
462,0.09748143694580205,-0.005622198720348414,157.7821175827024,1007.5136404933079,-0.6242854163768143,0.6667822817863414
463,0.09757390037358214,-0.005914260856145944,157.78125633875962,1007.5161585824098,-0.670528058817311,0.6597845364530326
464,0.09769210473268361,-0.006185504703361965,157.7806379193622,1007.5188126904787,-0.6640479134553701,0.6635190947952219
465,0.09783527230061317,-0.006433535605702974,157.7802552349608,1007.5215928795632,-0.6015360303086013,0.672945999016964
466,0.09800250480661737,-0.006656090768252269,157.78009980184078,1007.5244881598528,-0.4823847515598345,0.6988624694612087
467,0.09819281329728445,-0.006851118911890957,157.78016213337304,1007.5274867054587,-0.31240569782546146,0.7585981162931952
468,0.09840506814757716,-0.00701671682007001,157.7804322227571,1007.5305759296178,-0.10496934553991366,0.8296253925637866
469,0.09863794924978697,-0.007151024114365084,157.78090007651386,1007.5337424105122,0.12168313422105115,0.8622812555179608
470,0.09888997128206398,-0.007252228143920502,157.7815561299331,1007.5369718025576,0.3484098351599201,0.8327879882979647
471,0.09915956944128815,-0.007318718881525525,157.78239139117633,1007.5402488351107,0.5571084271659785,0.7652788170892029
472,0.09944516146344108,-0.007349277568676713,157.78339731796976,1007.543557353859,0.7303797182741789,0.7097090626400291
473,0.09974512244667576,-0.0073431457606414905,157.78456556909313,1007.5468803272402,0.8512994655339696,0.6909742463700719
474,0.10005769402188926,-0.007299941316421306,157.78588781001235,1007.5501997976171,0.9053333260054046,0.6916214943038511
475,0.10038091882225544,-0.007219540324691048,157.78735566635336,1007.5534968264833,0.8842074224907321,0.6948771169730839
476,0.10071267730709682,-0.007102078967512758,157.78896076915575,1007.5567515778021,0.7895158590043181,0.7024898423159475
477,0.10105081447204567,-0.006948117687131981,157.7906947601132,1007.559943645206,0.633816910441027,0.7160817360697637
478,0.10139326393408633,-0.0067588567563581425,157.79254916393288,1007.5630525323531,0.4385538956414621,0.7265437678569924
479,0.10173808162672913,-0.006536238327878942,157.79451515512187,1007.5660581049568,0.2295613649966768,0.7255502814841954
480,0.10208338365332315,-0.006282866678421563,157.79658338383408,1007.568940893009,0.031691924920750125,0.7163440181975929
481,0.1024272670542199,-0.0060018358220106805,157.798744015562,1007.5716822250583,-0.13585690708925569,0.7091491419627307
482,0.10276780186218416,-0.005696623174256396,157.80098695896763,1007.5742643284905,-0.26278562094936575,0.7113748856192874
483,0.10310310922643588,-0.005371124130063704,157.8033021406526,1007.5766705757263,-0.3497157375861306,0.7249639696292793
484,0.1034314535613934,-0.005029746043830448,157.80567973087474,1007.5788858769015,-0.40908041781385407,0.7464740758694559
485,0.10375125969748351,-0.00467740238135232,157.80811029740852,1007.5808970601008,-0.46388751986156507,0.7673693824395588
486,0.1040610375252346,-0.004319324372805796,157.81058491806408,1007.5826930949937,-0.5430793666766007,0.7797882384578737
487,0.10435928994389186,-0.00396076578087913,157.81309530590067,1007.5842651207882,-0.6740457002131279,0.7816922483597712
488,0.10464450353321475,-0.003606771386070326,157.8156339407137,1007.5856064207846,-0.8753709682404391,0.7751840732987176
489,0.10491525282253154,-0.0032621284065681407,157.81819413269432,1007.5867125998911,-1.15319971619126,0.7621857582730085
490,0.10517035362132215,-0.0029314654763273828,157.8207699613392,1007.5875820515446,-1.5019733485347686,0.7430958249245554
491,0.10540895973492416,-0.0026193392393874986,157.82335607965686,1007.5882165415927,-1.9074064425095685,0.7189540640359295
492,0.10563054117424917,-0.0023301658271355566,157.82594742248665,1007.588621681455,-2.3493376486141813,0.6936771381026162
493,0.1058347755532387,-0.002067995994869016,157.82853890922055,1007.5888071421737,-2.8040592346580553,0.6734851642289528
494,0.10602145144909011,-0.0018362714977824418,157.83112518788815,1007.5887865980661,-3.246876203196287,0.6641757875674388
495,0.10619046537662745,-0.0016377233288712395,157.8337003357526,1007.5885775777135,-3.6548525570803534,0.6684646095527051
496,0.10634190732825492,-0.0014744627456507607,157.83625738822823,1007.5882014125087,-4.008987895646797,0.6843026330451136
497,0.10647614922607962,-0.0013481596795537822,157.8387876555031,1007.5876832434778,-4.295556081344529,0.7060268661879332
498,0.10659384646668267,-0.0012601370906008785,157.84127989909825,1007.5870518898317,-4.506714630136933,0.7284646844202326
499,0.1066958397073302,-0.0012112990256114874,157.84371953267254,1007.5863394290953,-4.640148176805923,0.7488582286092649
500,0.10678303261448238,-0.0012019697238642537,157.84608801497285,1007.5855804685942,-4.697580416203351,0.7645135265233127
501,0.10685633803450584,-0.0012318047133555053,157.84836246015098,1007.5848112586817,-4.683068126792271,0.7712466171329211
502,0.1069167162270947,-0.001299875044416657,157.85051536242364,1007.5840688671038,-4.602647490706119,0.7655624704515249
503,0.1069652413362108,-0.0014048766143934003,157.8525143708226,1007.5833904623028,-4.465357296787467,0.7475944217538502
504,0.10700310354826494,-0.0015453063082594065,157.8543221490276,1007.5828125823238,-4.2833072844278846,0.7225903366308499
505,0.10703150828714313,-0.0017194778150869427,157.85589641206505,1007.5823703007768,-4.068868988911845,0.7018648705542513
506,0.10705152566738559,-0.001925397827022779,157.85719025321444,1007.5820962912015,-3.8302607479413098,0.7039448093850924
507,0.10706399145880396,-0.0021606500428774864,157.85815279577767,1007.5820198860706,-3.5687829092234153,0.7432931344999162
508,0.10706951927122396,-0.0024224246696019076,157.85873005884167,1007.5821663455098,-3.2795862661191677,0.8027392548368728
509,0.10706859236895384,-0.002707697222431126,157.85886590610173,1007.5825564967431,-2.9551904123404995,0.8402786879380273
510,0.1070616445985248,-0.003013422150809699,157.85850303325216,1007.5832066737927,-2.5897232435888284,0.8308101388336027
511,0.10704906040636719,-0.0033365897239899527,157.8575839934181,1007.5841287367529,-2.182071581680006,0.7898950624792611
