,Top chamber pressure,Bottom chamber pressure,Air frame pressure,Absolute pressure,Plate force,ACCL
0,0.10021165341917374,-0.00858202963053799,164.92088719034336,1007.6324033701768,-0.45604474345152113,0.6971057719287421
1,0.10000732304862184,-0.008509220681081182,164.92570923480392,1007.6327242212735,-1.081963097577912,0.6923700110985271
2,0.09980671042462586,-0.008455908292153883,164.93017211106596,1007.6330375857528,-1.7171063543015208,0.7043203172511052
3,0.09961150847925175,-0.008422545723555773,164.93425133184599,1007.6333396265579,-2.3331539810147817,0.7267900616231846
4,0.09942327144047508,-0.008409092432545243,164.93792753083753,1007.6336273849444,-2.90387560541334,0.7443541996242923
5,0.09924338283447696,-0.0084149679802813,164.9411860570584,1007.6338988131834,-3.406574765201057,0.7460839166093292
6,0.099073114548139,-0.008439184548049315,164.94401628398518,1007.6341529787171,-3.8237796508743997,0.7348531867264249
7,0.09891370561848144,-0.00848056775373375,164.94641079405372,1007.63439039482,-4.144263487952031,0.722719916678797
8,0.09876637339343128,-0.008537896685846915,164.9483646114535,1007.6346132612252,-4.362730212339912,0.716934242055843
9,0.09863222999022926,-0.008609865512361831,164.9498745890325,1007.634825447841,-4.478447092228919,0.7140472584121378
10,0.09851216421508673,-0.008694925884328943,164.9509390268346,1007.6350321878579,-4.4938061659978885,0.7091332048084702
11,0.0984067857778994,-0.008791171133275523,164.9515575209352,1007.6352396140564,-4.413860525571536,0.7037868280566311
12,0.09831647586472708,-0.008896382817309173,164.95173093619727,1007.6354543831852,-4.247121443379875,0.7031648095525433
13,0.09824149242266694,-0.009008213216998847,164.95146139806286,1007.6356834982762,-4.006763890776611,0.7103695981432603
14,0.09818202912796939,-0.00912435345332188,164.9507522794399,1007.6359342039777,-3.7107754320527064,0.7248979778099989
15,0.09813816945972405,-0.009242550902651253,164.94960826135437,1007.6362137798717,-3.3799601908049297,0.7429881759390751
16,0.09810977497142707,-0.009360478469549294,164.9480356152481,1007.6365291628623,-3.0341557008796585,0.7590119964162638
17,0.0980964112021585,-0.00947559273762455,164.94604275608276,1007.636886491825,-2.6888475836131036,0.7687365704133111
18,0.09809738447460281,-0.009585132197162205,164.9436409318253,1007.6372908194362,-2.3546081761866446,0.7712611878638822
19,0.09811186879058563,-0.009686293015279394,164.94084488118517,1007.6377461769818,-2.0393747284065995,0.7677809724283411
20,0.09813903138568217,-0.009776471901157364,164.93767335076643,1007.6382559097708,-1.750691679308865,0.7597194803836942
21,0.09817807264823951,-0.009853407236150653,164.934149382376,1007.6388230314979,-1.4950354816002047,0.7487607924101609
22,0.09822817075051045,-0.009915134920975963,164.9303003432487,1007.639450385667,-1.2744059172847457,0.7388838964376389
23,0.09828840523710188,-0.0099598322354242,164.92615778364288,1007.640140543545,-1.0831999827004921,0.7370447553989189
24,0.09835775468358816,-0.009985714741509118,164.92175723580817,1007.6408955699915,-0.9084401353191041,0.748085042669643
25,0.0984351996136039,-0.009991101314552135,164.9171379778151,1007.641716900063,-0.7340098268557327,0.7677993508417911
26,0.0985198717505636,-0.009974614283026777,164.91234264468667,1007.6426054198952,-0.5464854064213256,0.786949665352984
27,0.09861115190278327,-0.009935360959055195,164.9074165185329,1007.6435616327411,-0.3388308408596714,0.8070714512538079
28,0.09870866005354978,-0.009872957094498048,164.90240648362433,1007.644585759491,-0.11006408587753214,0.8439748285674735
29,0.09881217175843261,-0.009787391031434223,164.89735985522313,1007.6456777020521,0.13750032956814806,0.896330523696843
30,0.09892155929554779,-0.00967886365282359,164.89232331527595,1007.6468369239989,0.3999388445564449,0.9296595695442893
31,0.09903682843242385,-0.009547751368419455,164.88734202098573,1007.6480624316173,0.6702056950590958,0.9174640296672467
32,0.09915822410846312,-0.009394716321352638,164.8824588366895,1007.6493529689977,0.9345585403825467,0.8739104924780932
33,0.09928630596081806,-0.009220839531866865,164.87771365301685,1007.6507073173644,1.1702071760212505,0.8351366886919869
34,0.09942191209866393,-0.009027615701111262,164.87314280248583,1007.6521245003926,1.3466117850449209,0.816997852539248
35,0.09956601563613814,-0.008816756516622757,164.86877862499864,1007.6536037514811,1.4302172948241108,0.8072129185493095
36,0.09971955873050978,-0.008589903789659886,164.8646492440185,1007.6551441924647,1.3905819593962292,0.7925878287299062
37,0.09988335957815489,-0.008348428238485497,164.86077852494705,1007.6567443656317,1.20574729885751,0.7721208938741536
38,0.10005812655852502,-0.008093434681557198,164.8571861187486,1007.6584019086073,0.8653548784570475,0.7527835861880672
39,0.10024453452993096,-0.007825953344816656,164.85388756174308,1007.6601135104445,0.371089818287345,0.7440505149985219
40,0.10044327742741709,-0.007547167938339264,164.85089448573382,1007.6618750200116,-0.26420130482411963,0.7514872721289354
41,0.10065503114148422,-0.00725850861824744,164.84821502442824,1007.6636815154985,-1.0167621575598176,0.7719272764236187
42,0.10088032942793276,-0.0069615448109027565,164.84585454384694,1007.6655272084656,-1.8518415905802144,0.7968354920303804
43,0.10111942911181898,-0.006657769674156606,164.84381674337217,1007.66740513491,-2.7256746525223434,0.8172674112593419
44,0.10137225887238147,-0.006348452890572999,164.84210490435393,1007.6693067763928,-3.590536774956,0.8261844730384946
45,0.10163848612668336,-0.00603468854596905,164.84072294423845,1007.6712218960713,-4.4010638259292705,0.8205947437989145
46,0.10191764791001569,-0.00571761792397748,164.83967612491296,1007.6731387033819,-5.119166711306605,0.8022471948189773
47,0.10220924687197074,-0.005398672045067244,164.83897144476103,1007.6750442055759,-5.715915740220446,0.7769813701174428
48,0.10251274272845771,-0.005079663379113922,164.83861778026878,1007.6769245799408,-6.17060026531508,0.753442489430108
49,0.10282745101458828,-0.004762676618309669,164.83862587124943,1007.67876546962,-6.4689409924318895,0.7394516497510111
50,0.1031524376566398,-0.004449865066292825,164.83900820697625,1007.6805521587615,-6.602647901080367,0.7370913692301004
51,0.10348650412033393,-0.0041433238542502,164.83977874526713,1007.6822697362229,-6.570970533005799,0.7420226378711229
52,0.10382828064897508,-0.003845132364536771,164.84095237424805,1007.6839034473351,-6.38335226897221,0.7474643598143089
53,0.10417635264507807,-0.003557500130267322,164.8425441206832,1007.6854392444569,-6.0614487561432,0.7469870221526413
54,0.1045293224547027,-0.0032828535016577493,164.84456818667795,1007.6868643176356,-5.638463874491549,0.7364098668775043
55,0.10488577496373451,-0.0030237593866940474,164.84703696636635,1007.6881673888868,-5.154959133006194,0.7171955715879783
56,0.10524420865432513,-0.0027827410831599004,164.84996022428052,1007.6893387305313,-4.652456189001761,0.6970429138170189
57,0.10560302465563062,-0.002562145524586198,164.85334450545074,1007.6903700751958,-4.167007617402632,0.6839911889525068
58,0.10596060505695042,-0.0023641744080459895,164.85719270223626,1007.6912546378228,-3.724347960439715,0.6801304551207481
59,0.10631542149807766,-0.002191038490744739,164.86150369237205,1007.6919872739891,-3.3375300029003014,0.6828280422696167
60,0.10666608137014563,-0.002045075431806039,164.86627204790577,1007.6925646068436,-3.0073241241976163,0.6892971804809886
61,0.10701126853403174,-0.0019286972167032903,164.87148788815654,1007.6929849833124,-2.725145012044621,0.6984948570180878
62,0.10734962494856407,-0.0018441805434715808,164.8771369492472,1007.6932482465412,-2.4778419129912663,0.7101651487255272
63,0.10767967251351704,-0.00179344843181896,164.8832008410586,1007.6933554401177,-2.2531934390906514,0.7228257784088277
64,0.10799984291384197,-0.0017779958972111206,164.88965734900873,1007.6933086484497,-2.0446396534583613,0.7346974943836626
65,0.10830859366928566,-0.0017989869472120653,164.89648065009806,1007.693111068306,-1.8535744256124786,0.7452638162383345
66,0.10860451643813121,-0.0018574034888351226,164.90364143935346,1007.6927671788505,-1.6876363838635982,0.7538394004382896
67,0.1088863491252189,-0.001954083867873684,164.91110708496072,1007.6922828214043,-1.5550695511862571,0.7587770311152953
68,0.10915288663808458,-0.002089586129916519,164.91884197397047,1007.6916651021132,-1.4578660165795867,0.7595333425743915
69,0.10940287836064233,-0.002263963545086573,164.9268081384696,1007.6909221398525,-1.3873385920504404,0.7599546402138826
70,0.10963501774144124,-0.002476618481011931,164.9349660843922,1007.6900628139035,-1.3241396346122443,0.7688692401291841
71,0.10984805235694872,-0.0027263428985933027,164.94327561803067,1007.6890967150533,-1.2424775339572918,0.7911847600957445
72,0.11004094211437841,-0.0030115057708015557,164.95169648443004,1007.6880343253364,-1.1167910475930114,0.8137640093128334
73,0.11021295703591412,-0.0033302310388971736,164.96018877734113,1007.6868872501788,-0.9284356982139954,0.8108967461651779
74,0.11036366253545138,-0.0036804297026224735,164.9687132872697,1007.6856683198608,-0.6701200386805795,0.7729821040646212
75,0.11049283923412746,-0.004059692339409287,164.97723206167512,1007.6843914796381,-0.34705888432542054,0.7237529347631806
76,0.11060043712650366,-0.00446518233086781,164.98570927265877,1007.6830715327372,0.024611023497875806,0.6984502483087884
77,0.11068662091157758,-0.004893671451299649,164.99411216067318,1007.6817239286245,0.4208267803018515,0.7034940458023273
78,0.11075186734418929,-0.0053417260752678004,165.00241172166022,1007.6803647125965,0.813140884420406,0.7199417625170085
79,0.11079701715885283,-0.005805906671049462,165.01058299911256,1007.6790105386971,1.1729331351999406,0.733450881225358
80,0.1108232125024715,-0.006282824029014421,165.01860507273003,1007.6776785544812,1.4765930247792625,0.7401291383957476
81,0.110831739698001,-0.0067690222881501005,165.02646091652747,1007.6763860031659,1.7107209377203176,0.7416050861096114
82,0.11082387232168897,-0.00726081216446329,165.03413723054663,1007.6751495223565,1.8749402794282233,0.7420062067300883
83,0.11080080527397229,-0.007754220550829236,165.04162424007308,1007.6739843465651,1.980332657558236,0.7457265147378567
84,0.11076368888062808,-0.00824512067057531,165.0489154245444,1007.6729036848834,2.044160681094489,0.7545707120892837
85,0.11071368626439736,-0.008729449262255683,165.05600717342367,1007.6719183311917,2.0843539331525562,0.7656119891417387
86,0.11065196475523979,-0.009203343950676632,165.0628983968751,1007.6710363828304,2.1174346610968655,0.7724326132297834
87,0.11057960483402453,-0.009663115453037897,165.06959015325398,1007.6702629613204,2.1602520770349614,0.7694331413110613
88,0.11049749998886682,-0.010105130088492627,165.07608535798974,1007.6695999398647,2.2322834884819045,0.7554191333615607
89,0.11040633792166311,-0.010525764062791439,165.08238855162918,1007.6690458178842,2.3553846119215294,0.734220443592269
90,0.11030667899227002,-0.010921521413812698,165.08850564417506,1007.668595900523,2.550601420858783,0.712751957623674
91,0.11019905743585383,-0.011289249692381629,165.09444361501485,1007.6682427573745,2.8333591053153597,0.6975137708323054
92,0.11008401133258906,-0.01162629311960627,165.10021022614848,1007.6679767758156,3.2086813464882766,0.6907206338869606
93,0.1099620144859217,-0.011930484348452763,165.10581379636162,1007.6677866438276,3.667993080870673,0.6886110186704054
94,0.10983337727181015,-0.01220003071168632,165.1112629989979,1007.6676597069682,4.188359971786582,0.6847960385701117
95,0.10969821543713154,-0.012433446850834164,165.11656658717692,1007.6675822891466,4.734269530684948,0.6764705484203889
96,0.10955652098524798,-0.012629634352777119,165.1217330160995,1007.667540133742,5.261690132461396,0.6669441752285238
97,0.1094082729771891,-0.012788060272581017,165.1267700439258,1007.667518979866,5.723572587585153,0.6623718397070371
98,0.10925349220976337,-0.012908878307080832,165.13168440163852,1007.6675051170313,6.075564091781338,0.6672310127317352
99,0.10909219727503451,-0.01299287189075741,165.13648156893757,1007.6674857610672,6.281186558011356,0.6818048572439097
100,0.10892430894292526,-0.013041246415395166,165.14116567687012,1007.6674491880427,6.316361584440358,0.7011914970072539
101,0.10874959662453305,-0.013055422001388055,165.1457395370469,1007.6673847061023,6.172937825714072,0.7175723433865471
102,0.10856772044056154,-0.013036966303349199,165.15020475297234,1007.6672826810154,5.859998267905048,0.7260359822468675
103,0.10837833134728868,-0.012987669281160323,165.15456186261724,1007.667134744542,5.401624161862067,0.7283992372681418
104,0.10818113718149555,-0.012909624903937163,165.15881047482569,1007.6669340790052,4.831503849515954,0.7303742812665238
105,0.10797587643344762,-0.012805178229948809,165.1629493783233,1007.6666755937791,4.186869466340774,0.7347489871691577
106,0.1077622323029723,-0.012676726947801833,165.16697664535374,1007.6663558947043,3.5042707001007187,0.738196238435995
107,0.1075397805405228,-0.012526509162878206,165.17088974196227,1007.6659730824049,2.8176530409043323,0.7355577500557995
108,0.1073080361250062,-0.012356530595429467,165.17468555935957,1007.6655265499966,2.157441509338611,0.7263732945813588
109,0.1070665738856133,-0.012168665234296607,165.17836021752052,1007.6650169127046,1.5493855286948133,0.7155159605138546
110,0.10681513098558947,-0.011964811455117696,165.1819085309139,1007.6644460113284,1.0130093206446773,0.7075066699889165
111,0.10655361308553252,-0.011746941531670538,165.18532317514766,1007.6638168592016,0.5602362976543986,0.7020775320574615
112,0.1062820092986078,-0.011516990319584542,165.18859380088378,1007.6631334627576,0.19474101685384682,0.6962315196525091
113,0.10600030213235499,-0.01127668604723074,165.19170637378917,1007.6624005311054,-0.08787427336945086,0.690038000441793
114,0.10570846086224722,-0.011027482937206472,165.1946428043155,1007.6616232204609,-0.29940069460093355,0.6891214476711718
115,0.10540652586648218,-0.010770659610241547,165.19738077480272,1007.6608070849846,-0.4583113887897525,0.6995416015373557
116,0.10509470624647546,-0.010507489055865966,165.19989372997404,1007.6599581996476,-0.5891823006913413,0.7193645865544658
117,0.10477340383977929,-0.010239317320025637,165.20215109968893,1007.6590832328892,-0.7215036671164228,0.7383182401622297
118,0.10444315068067017,-0.009967477496448768,165.20411886330697,1007.658189288793,-0.8867991731066809,0.7473752047961031
119,0.10410453468313703,-0.009693124306062723,165.20576050255806,1007.6572835294752,-1.1141532450684366,0.7460816425235567
120,0.10375820262696576,-0.009417149448913214,165.20703821086826,1007.6563727784478,-1.425324885322624,0.7404862236067397
121,0.10340495335339234,-0.009140261697279167,165.20791410680587,1007.6554633156375,-1.8303690570406417,0.7366012525365482
122,0.10304584453858462,-0.00886315943290164,165.2083512740185,1007.6545608751665,-2.324376479915216,0.7364704975682981
123,0.10268222069568043,-0.008586632804431312,165.20831463756977,1007.6536706971629,-2.886052120593149,0.7380275091565807
124,0.10231563980802798,-0.008311497877024437,165.2077718352718,1007.6527974943465,-3.478550215761061,0.7372626452526349
125,0.10194776696938601,-0.008038426195616212,165.20669418632497,1007.6519452997978,-4.05258346533823,0.7315652849553269
126,0.1015803326609087,-0.00776783531287552,165.20505763714317,1007.6511173253228,-4.5517982403847626,0.7221736103409196
127,0.10121519225003914,-0.007499953414709631,165.20284348624304,1007.6503160221438,-4.9200693641951645,0.7141926674596045
128,0.10085442911287344,-0.007235014281603505,165.20003880616866,1007.6495433586709,-5.109460419947496,0.713387428035666
129,0.10050040265037803,-0.006973422203530548,165.19663655316427,1007.6488011436484,-5.087125381798053,0.7206651166179383
130,0.10015568942647007,-0.006715757260350829,165.19263540004684,1007.6480912247955,-4.839963062503124,0.7299316850361255
131,0.09982296033858278,-0.006462638751106624,165.1880394356589,1007.6474154820315,-4.376649804432063,0.7326844565226729
132,0.09950489425722803,-0.006214592332303844,165.1828578828942,1007.6467756820364,-3.7271961662400983,0.7247537378109983
133,0.09920419236742593,-0.005972062906335829,165.17710485595552,1007.6461734148896,-2.9404785174063264,0.7094965165519707
134,0.09892366232236072,-0.005735585543524389,165.17079909763723,1007.6456102577029,-2.0799423923074514,0.6950754068918961
135,0.0986662777136846,-0.005505984592883086,165.16396363069566,1007.6450880609441,-1.2169378454486548,0.6879314583249906
136,0.09843513792509792,-0.0052844444570258565,165.15662525064994,1007.644609152046,-0.4214218941379926,0.6878863923071452
137,0.09823333462967175,-0.00507240852122736,165.1488138610038,1007.6441763290289,0.24841785538665562,0.6893803153197982
138,0.09806380543418305,-0.004871411771489161,165.14056178242103,1007.6437926518972,0.7545414647756346,0.6881590580779449
139,0.09792925437951994,-0.004683002262061866,165.13190318057767,1007.6434612003409,1.082839213970395,0.6858323523777622
140,0.09783214091749198,-0.004508808850141263,165.12287366499126,1007.6431849879765,1.2416409080636015,0.6864930078953613
141,0.09777466098800246,-0.004350656856096085,165.1135100376878,1007.6429670197654,1.2560244995496248,0.6912733284379518
142,0.09775864325812812,-0.004210572002857814,165.10385014951527,1007.6428103045478,1.1599609731051075,0.6993032207144807
143,0.09778536108807726,-0.0040906055102921095,165.0939328622811,1007.6427176536346,0.9886482033406381,0.7105710256787052
144,0.09785534560814892,-0.003992565567570086,165.08379815979862,1007.6426912395697,0.7730166796192819,0.7239108489973103
145,0.09796829958704169,-0.003917815458493667,165.07348738210226,1007.642732093752,0.5372465387690966,0.7343161845084657
146,0.09812314154832914,-0.0038672413335287584,165.06304341426167,1007.6428398078909,0.2986720111826173,0.7354669635055502
147,0.09831811990911843,-0.0038413547045122198,165.05251063308202,1007.6430125133243,0.0688321066061448,0.7258682154023522
148,0.09855090859061685,-0.003840395695252458,165.04193458098075,1007.6432469729739,-0.14504139666173899,0.7116934117701198
149,0.09881864908210199,-0.0038643380892459758,165.03136152312868,1007.6435386081204,-0.33850919669480817,0.7035638273998739
150,0.09911798243826374,-0.003912829206133544,165.02083799873753,1007.6438814434068,-0.509287863484083,0.7138189017060501
151,0.09944513643329134,-0.003985181499275535,165.01041027510806,1007.6442681115617,-0.6582340333901229,0.7517908297655516
152,0.09979607514691576,-0.004080477610977195,165.00012359138637,1007.6446900593616,-0.7912153491853289,0.8033896062037273
153,0.10016664653646076,-0.004197720968502171,164.99002124784414,1007.6451379325011,-0.9198796207760793,0.8283197481344182
154,0.10055265936949315,-0.004335904738913584,164.9801436958791,1007.6456019946991,-1.0597806325956398,0.7992174050130234
155,0.10094988949104414,-0.004493947648144889,164.97052778493315,1007.646072456715,-1.226008956929192,0.7342574237315072
156,0.10135408444733952,-0.004670572914225133,164.96120628654018,1007.6465396939171,-1.4280388765646208,0.6840578207809469
157,0.10176103278981578,-0.004864254643945962,164.95220770482027,1007.6469944547608,-1.6663446255270529,0.6778809038351993
158,0.10216669210608409,-0.005073279843095132,164.94355626193777,1007.6474281688701,-1.9328221407360502,0.7005000393403981
159,0.1025673024657699,-0.0052958519373535054,164.9352719337025,1007.6478333125996,-2.2146419349671262,0.7339665112236076
160,0.10295942005303349,-0.005530120942477171,164.9273705082255,1007.6482036770791,-2.4988026328056705,0.7691365050413213
161,0.10333988327923792,-0.005774111985536523,164.91986375725367,1007.6485344270602,-2.774790712090308,0.7938590003334706
162,0.10370578773358224,-0.006025641413702253,164.9127598046432,1007.6488219896827,-3.0347732277356982,0.7963449182298643
163,0.10405452370360865,-0.006282326169771691,164.90606363224566,1007.6490639409245,-3.2724906345341367,0.7741212377140482
